-90
-87.6028
-85.2056
-82.8084
-80.4112
-78.014
-75.6168
-73.2196
-70.8224
-68.4252
-66.028
-63.6308
-61.2336
-60.27
-58.93
-57.29
-55.57
-53.83
-51.93
-50.04
-48.06
-45.99
-43.86
-41.65
-39.39
-36.96
-34.54
-31.98
-29.32
-26.7
-23.86
-21.03
-18.17
-15.23
-12.09
-9.02
-5.78
-1.69
-0.01
4.04
6.96
9.81
12.51
15.2
18.11
20.81
23.72
26.26
29.06
31.59
34.25
36.59
39.03
41.28
43.56
45.74
47.65
49.49
51.56
53.36
55.03
56.73
58.36
59.59
61.9872
64.3844
66.7816
69.1788
71.576
73.9732
76.3704
78.7676
81.1648
83.562
85.9592
88.3564
90
